freq	 01Vpk	 02Vpk	 05Vpk	 10Vpk	 20Vpk	 50Vpk
Hz	 m/s	 m/s	 m/s	 m/s	 m/s	 m/s
1.000000e+04	 1.338614e-04	 2.714324e-04	 6.743999e-04	 1.371588e-03	 2.702834e-03	 6.924235e-03
1.001126e+04	 1.350962e-04	 2.756535e-04	 6.998658e-04	 1.418433e-03	 2.779402e-03	 7.129308e-03
1.002253e+04	 1.406775e-04	 2.831556e-04	 7.249339e-04	 1.467890e-03	 2.869634e-03	 7.381414e-03
1.003382e+04	 1.490995e-04	 2.922969e-04	 7.514290e-04	 1.534840e-03	 2.970415e-03	 7.648472e-03
1.004512e+04	 1.530259e-04	 3.083425e-04	 7.842377e-04	 1.594105e-03	 3.082184e-03	 7.955111e-03
1.005643e+04	 1.572693e-04	 3.170756e-04	 8.165199e-04	 1.657895e-03	 3.204691e-03	 8.275904e-03
1.006775e+04	 1.608715e-04	 3.354126e-04	 8.501997e-04	 1.729826e-03	 3.352972e-03	 8.645654e-03
1.007909e+04	 1.683850e-04	 3.475914e-04	 8.921333e-04	 1.796320e-03	 3.520558e-03	 9.077715e-03
1.009044e+04	 1.818899e-04	 3.638599e-04	 9.339621e-04	 1.872983e-03	 3.706489e-03	 9.546997e-03
1.010180e+04	 1.930673e-04	 3.761310e-04	 9.812961e-04	 1.959253e-03	 3.905372e-03	 1.004733e-02
1.011318e+04	 1.997904e-04	 4.000119e-04	 1.036487e-03	 2.044180e-03	 4.115982e-03	 1.055711e-02
1.012456e+04	 2.073118e-04	 4.205679e-04	 1.081635e-03	 2.147341e-03	 4.336946e-03	 1.111512e-02
1.013596e+04	 2.174057e-04	 4.379554e-04	 1.133299e-03	 2.254481e-03	 4.564073e-03	 1.164942e-02
1.014738e+04	 2.277319e-04	 4.566047e-04	 1.171161e-03	 2.384788e-03	 4.780783e-03	 1.215187e-02
1.015880e+04	 2.262853e-04	 4.812058e-04	 1.214335e-03	 2.504645e-03	 4.961850e-03	 1.247881e-02
1.017024e+04	 2.319863e-04	 4.924660e-04	 1.256419e-03	 2.588220e-03	 5.121297e-03	 1.262637e-02
1.018170e+04	 2.340174e-04	 5.025249e-04	 1.290847e-03	 2.623217e-03	 5.166852e-03	 1.255304e-02
1.019316e+04	 2.358452e-04	 5.071541e-04	 1.304483e-03	 2.617737e-03	 5.120853e-03	 1.230973e-02
1.020464e+04	 2.337182e-04	 5.016645e-04	 1.284616e-03	 2.560779e-03	 4.990257e-03	 1.190802e-02
1.021613e+04	 2.252541e-04	 4.836540e-04	 1.247744e-03	 2.459052e-03	 4.775686e-03	 1.135280e-02
1.022763e+04	 2.134076e-04	 4.648505e-04	 1.185838e-03	 2.317530e-03	 4.522957e-03	 1.072699e-02
1.023915e+04	 2.037926e-04	 4.367357e-04	 1.123312e-03	 2.161424e-03	 4.227907e-03	 1.002350e-02
1.025068e+04	 1.884826e-04	 4.094079e-04	 1.037377e-03	 1.996434e-03	 3.934151e-03	 9.317639e-03
1.026222e+04	 1.774158e-04	 3.828859e-04	 9.572582e-04	 1.828860e-03	 3.634478e-03	 8.602514e-03
1.027378e+04	 1.619138e-04	 3.532146e-04	 8.800774e-04	 1.656516e-03	 3.348434e-03	 7.944224e-03
1.028535e+04	 1.477600e-04	 3.289027e-04	 8.067692e-04	 1.498802e-03	 3.081974e-03	 7.321642e-03
1.029693e+04	 1.399258e-04	 3.003120e-04	 7.460490e-04	 1.390393e-03	 2.836885e-03	 6.757371e-03
1.030852e+04	 1.305208e-04	 2.727811e-04	 6.822718e-04	 1.297846e-03	 2.614605e-03	 6.246675e-03
1.032013e+04	 1.208723e-04	 2.565309e-04	 6.206998e-04	 1.201517e-03	 2.411075e-03	 5.795268e-03
1.033175e+04	 1.109176e-04	 2.333735e-04	 5.767605e-04	 1.115192e-03	 2.216591e-03	 2.218116e-03
1.034339e+04	 1.016951e-04	 2.172968e-04	 5.222148e-04	 1.041889e-03	 2.048911e-03	 4.980897e-03
1.035503e+04	 9.833556e-05	 1.994832e-04	 4.834777e-04	 9.676789e-04	 1.889966e-03	 4.640850e-03
1.036669e+04	 8.924909e-05	 1.863052e-04	 4.623755e-04	 8.967026e-04	 1.756451e-03	 4.324431e-03
1.037837e+04	 8.499760e-05	 1.699186e-04	 4.308908e-04	 8.377996e-04	 1.630628e-03	 4.056851e-03
1.039005e+04	 7.780428e-05	 1.594477e-04	 4.027567e-04	 7.841240e-04	 1.518355e-03	 3.794245e-03
1.040175e+04	 7.261460e-05	 1.472702e-04	 3.803442e-04	 7.147770e-04	 1.415473e-03	 3.563224e-03
1.041347e+04	 6.895766e-05	 1.396785e-04	 3.515957e-04	 6.669374e-04	 1.319538e-03	 3.327831e-03
1.042519e+04	 6.402058e-05	 1.239273e-04	 3.252502e-04	 6.201575e-04	 1.224179e-03	 7.967394e-04
1.043693e+04	 5.903577e-05	 1.179817e-04	 3.021883e-04	 5.716135e-04	 1.134296e-03	 2.923348e-03
1.044868e+04	 5.688701e-05	 1.139776e-04	 2.810787e-04	 5.373793e-04	 1.065318e-03	 2.739761e-03
1.046045e+04	 5.305500e-05	 1.055988e-04	 2.659653e-04	 5.154552e-04	 9.874605e-04	 2.560453e-03
1.047223e+04	 4.960066e-05	 9.735383e-05	 2.434497e-04	 4.819000e-04	 9.129242e-04	 2.402000e-03
1.048402e+04	 4.670963e-05	 9.536547e-05	 2.252280e-04	 4.478562e-04	 8.522105e-04	 2.130585e-03
1.049583e+04	 4.349320e-05	 9.047859e-05	 2.148370e-04	 4.246742e-04	 8.042011e-04	 2.118310e-03
1.050764e+04	 4.025425e-05	 7.947935e-05	 2.078619e-04	 3.969504e-04	 7.526322e-04	 1.988786e-03
1.051948e+04	 3.648840e-05	 7.822988e-05	 1.925366e-04	 3.714976e-04	 6.936365e-04	 1.849032e-03
1.053132e+04	 3.404956e-05	 7.145128e-05	 1.804882e-04	 3.468590e-04	 6.495261e-04	 1.733193e-03
1.054318e+04	 3.229021e-05	 6.888501e-05	 1.696246e-04	 3.142561e-04	 6.104905e-04	 1.621092e-03
1.055505e+04	 3.053212e-05	 6.470939e-05	 1.555995e-04	 2.960809e-04	 5.753519e-04	 1.491797e-03
1.056694e+04	 2.855748e-05	 5.730739e-05	 1.437665e-04	 2.691363e-04	 5.303972e-04	 1.383579e-03
1.057884e+04	 2.697424e-05	 5.524361e-05	 1.334495e-04	 2.507312e-04	 4.968492e-04	 1.280016e-03
1.059075e+04	 2.339414e-05	 5.110064e-05	 1.227853e-04	 2.311863e-04	 4.623637e-04	 7.907889e-04
1.060267e+04	 2.359186e-05	 4.788023e-05	 1.125217e-04	 2.156782e-04	 4.273482e-04	 1.089238e-03
1.061461e+04	 2.116262e-05	 4.343131e-05	 1.063846e-04	 2.042626e-04	 3.852041e-04	 9.985665e-04
1.062657e+04	 1.928751e-05	 3.849328e-05	 9.486800e-05	 1.835598e-04	 3.629329e-04	 9.058410e-04
1.063853e+04	 1.596289e-05	 3.508712e-05	 8.542121e-05	 1.649505e-04	 3.316863e-04	 8.244895e-04
1.065051e+04	 1.477373e-05	 3.195714e-05	 7.585140e-05	 1.514617e-04	 2.916848e-04	 7.413314e-04
1.066250e+04	 1.370714e-05	 2.901032e-05	 6.919803e-05	 1.337938e-04	 2.622273e-04	 6.554535e-04
1.067451e+04	 1.271111e-05	 2.452060e-05	 6.393810e-05	 1.245296e-04	 2.388967e-04	 5.871030e-04
1.068653e+04	 1.171948e-05	 2.256762e-05	 5.441195e-05	 1.091594e-04	 2.160691e-04	 5.276700e-04
1.069856e+04	 1.104627e-05	 2.066837e-05	 5.046946e-05	 9.197574e-05	 1.825770e-04	 4.680216e-04
1.071061e+04	 8.966031e-06	 1.721315e-05	 4.489777e-05	 8.166321e-05	 1.656116e-04	 4.185007e-04
1.072267e+04	 2.718534e-06	 1.499206e-05	 3.978625e-05	 7.219232e-05	 1.458345e-04	 3.754036e-04
1.073475e+04	 7.497438e-06	 1.455592e-05	 3.578650e-05	 6.682154e-05	 1.337752e-04	 3.489788e-04
1.074683e+04	 5.985365e-06	 1.247999e-05	 3.279887e-05	 6.236361e-05	 1.312715e-04	 3.351030e-04
1.075894e+04	 6.309002e-06	 1.304648e-05	 3.213518e-05	 6.251632e-05	 1.253323e-04	 3.256069e-04
1.077105e+04	 6.690883e-06	 1.292388e-05	 3.180247e-05	 6.330766e-05	 1.308461e-04	 3.382439e-04
1.078318e+04	 6.713111e-06	 1.347159e-05	 3.446786e-05	 6.940965e-05	 1.390283e-04	 3.710068e-04
1.079532e+04	 9.049251e-06	 1.470717e-05	 3.589557e-05	 7.432760e-05	 1.561188e-04	 4.053523e-04
1.080748e+04	 9.041510e-06	 1.677128e-05	 3.951359e-05	 8.388158e-05	 1.637428e-04	 4.344363e-04
1.081965e+04	 9.507149e-06	 1.731308e-05	 4.204900e-05	 8.963063e-05	 1.803155e-04	 4.720107e-04
1.083183e+04	 1.041282e-05	 1.674648e-05	 4.517716e-05	 9.501787e-05	 1.904046e-04	 5.025257e-04
1.084403e+04	 1.140379e-05	 1.949647e-05	 4.932656e-05	 1.027145e-04	 2.081339e-04	 5.278878e-04
1.085624e+04	 1.223038e-05	 2.226186e-05	 5.031408e-05	 1.048760e-04	 2.186050e-04	 5.437759e-04
1.086846e+04	 1.290052e-05	 2.161433e-05	 5.357875e-05	 1.102415e-04	 2.187816e-04	 5.672492e-04
1.088070e+04	 1.207632e-05	 2.356794e-05	 5.692064e-05	 1.125861e-04	 2.337302e-04	 5.918411e-04
1.089295e+04	 1.241611e-05	 2.439253e-05	 6.053864e-05	 1.166270e-04	 2.407140e-04	 1.032614e-04
1.090522e+04	 1.323879e-05	 2.453028e-05	 5.973901e-05	 1.197682e-04	 2.438241e-04	 6.369982e-04
1.091750e+04	 1.445796e-05	 2.611922e-05	 6.228480e-05	 1.182478e-04	 2.497958e-04	 6.530240e-04
1.092979e+04	 1.363166e-05	 2.553401e-05	 6.234454e-05	 1.216306e-04	 2.524127e-04	 6.621158e-04
1.094210e+04	 1.542351e-05	 2.770759e-05	 6.340326e-05	 1.222211e-04	 2.575082e-04	 6.696043e-04
1.095442e+04	 1.423182e-05	 2.555411e-05	 6.572980e-05	 1.200774e-04	 2.580048e-04	 6.753399e-04
1.096676e+04	 1.385556e-05	 2.888322e-05	 6.724348e-05	 1.242478e-04	 2.622507e-04	 6.885675e-04
1.097911e+04	 1.426177e-05	 2.823296e-05	 6.872324e-05	 1.299251e-04	 2.577014e-04	 6.908968e-04
1.099147e+04	 1.480952e-05	 2.902342e-05	 6.978565e-05	 1.304529e-04	 2.620068e-04	 6.972291e-04
1.100385e+04	 1.431190e-05	 2.693787e-05	 6.917307e-05	 1.336445e-04	 2.652034e-04	 7.009194e-04
1.101624e+04	 1.481832e-05	 3.043082e-05	 7.054090e-05	 1.373240e-04	 2.720412e-04	 7.016371e-04
1.102864e+04	 1.500579e-05	 2.677168e-05	 7.066025e-05	 1.376789e-04	 2.728397e-04	 7.024169e-04
1.104106e+04	 1.429075e-05	 2.999698e-05	 7.101079e-05	 1.425532e-04	 2.810916e-04	 6.929885e-04
1.105349e+04	 1.511366e-05	 2.963836e-05	 7.209514e-05	 1.420978e-04	 2.831517e-04	 7.083368e-04
1.106594e+04	 1.635039e-05	 3.093612e-05	 7.162444e-05	 1.452501e-04	 2.759951e-04	 7.051149e-04
1.107840e+04	 1.419838e-05	 3.033882e-05	 7.043218e-05	 1.447078e-04	 2.883582e-04	 7.020510e-04
1.109087e+04	 1.602816e-05	 2.982594e-05	 7.306972e-05	 1.478120e-04	 2.925231e-04	 7.309002e-04
1.110336e+04	 1.606009e-05	 3.214547e-05	 7.235068e-05	 1.482082e-04	 2.992425e-04	 7.158316e-04
1.111587e+04	 1.551201e-05	 3.206026e-05	 7.581285e-05	 1.520928e-04	 3.053960e-04	 7.544390e-04
1.112838e+04	 1.520204e-05	 3.193997e-05	 7.603321e-05	 1.529831e-04	 3.069747e-04	 7.717606e-04
1.114091e+04	 1.626182e-05	 3.232292e-05	 7.791197e-05	 1.510281e-04	 3.068586e-04	 7.629263e-04
1.115346e+04	 1.642646e-05	 3.205764e-05	 7.908813e-05	 1.548316e-04	 3.204772e-04	 7.326168e-04
1.116602e+04	 1.640860e-05	 3.090133e-05	 7.901239e-05	 1.588523e-04	 3.296216e-04	 7.528504e-04
1.117859e+04	 1.582931e-05	 1.945479e-05	 8.316864e-05	 1.625228e-04	 3.306826e-04	 7.701235e-04
1.119118e+04	 1.553893e-05	 3.305700e-05	 8.541491e-05	 1.714770e-04	 3.381195e-04	 7.737592e-04
1.120378e+04	 1.703938e-05	 3.234470e-05	 8.525345e-05	 1.720842e-04	 3.536181e-04	 7.856520e-04
1.121640e+04	 1.692684e-05	 3.444982e-05	 8.558069e-05	 1.723383e-04	 3.481336e-04	 7.892913e-04
1.122903e+04	 1.690295e-05	 3.269009e-05	 8.510240e-05	 1.758513e-04	 3.591699e-04	 8.077318e-04
1.124167e+04	 1.697892e-05	 3.520564e-05	 8.625912e-05	 1.817017e-04	 3.623984e-04	 8.231037e-04
1.125433e+04	 1.701897e-05	 3.650590e-05	 8.931390e-05	 1.815055e-04	 3.698274e-04	 8.370803e-04
1.126700e+04	 1.708346e-05	 3.679503e-05	 9.123849e-05	 1.834269e-04	 3.785809e-04	 4.020565e-04
1.127969e+04	 1.703145e-05	 3.743230e-05	 9.047815e-05	 1.875242e-04	 3.827030e-04	 8.802042e-04
1.129239e+04	 1.809953e-05	 3.753843e-05	 9.252694e-05	 1.853041e-04	 3.922190e-04	 1.418032e-04
1.130511e+04	 1.866306e-05	 3.720205e-05	 9.093170e-05	 1.848745e-04	 2.019846e-04	 8.699238e-04
1.131784e+04	 1.909418e-05	 3.993718e-05	 9.191666e-05	 1.882655e-04	 3.928961e-04	 8.765875e-04
1.133058e+04	 1.890676e-05	 3.885903e-05	 9.283686e-05	 1.889661e-04	 3.978795e-04	 8.897547e-04
1.134334e+04	 1.757129e-05	 3.886942e-05	 9.317674e-05	 1.921199e-04	 3.933071e-04	 9.066852e-04
1.135611e+04	 1.837840e-05	 4.118519e-05	 1.001154e-04	 1.881186e-04	 4.074022e-04	 9.245916e-04
1.136890e+04	 1.957825e-05	 3.918755e-05	 9.836483e-05	 1.947680e-04	 4.038415e-04	 9.441840e-04
1.138170e+04	 2.006482e-05	 3.996557e-05	 1.016908e-04	 2.019365e-04	 4.164323e-04	 9.565312e-04
1.139452e+04	 2.038520e-05	 4.282235e-05	 1.044632e-04	 2.050894e-04	 4.088934e-04	 9.752447e-04
1.140735e+04	 2.011896e-05	 4.202327e-05	 1.068278e-04	 2.118629e-04	 4.242491e-04	 9.937149e-04
1.142019e+04	 1.998852e-05	 4.269712e-05	 1.080604e-04	 2.120475e-04	 4.301580e-04	 1.007198e-03
1.143305e+04	 1.961710e-05	 4.233818e-05	 1.080116e-04	 2.136706e-04	 4.266520e-04	 1.010069e-03
1.144593e+04	 2.125602e-05	 4.278512e-05	 1.106475e-04	 2.160461e-04	 4.306009e-04	 1.036947e-03
1.145882e+04	 1.944799e-05	 4.416985e-05	 1.123625e-04	 2.212949e-04	 4.371236e-04	 1.036381e-03
1.147172e+04	 2.077179e-05	 4.364602e-05	 1.106789e-04	 2.259263e-04	 4.369833e-04	 1.049991e-03
1.148464e+04	 2.145281e-05	 4.445575e-05	 1.125167e-04	 2.253166e-04	 4.503845e-04	 1.055714e-03
1.149757e+04	 2.125869e-05	 4.408942e-05	 1.166492e-04	 2.275496e-04	 4.399380e-04	 1.051976e-03
1.151052e+04	 2.126708e-05	 4.543664e-05	 1.169950e-04	 2.280178e-04	 4.528208e-04	 7.809767e-04
1.152348e+04	 2.189924e-05	 4.793843e-05	 1.147800e-04	 2.323197e-04	 4.471908e-04	 1.059510e-03
1.153645e+04	 2.168355e-05	 4.511800e-05	 1.141970e-04	 2.288602e-04	 4.544095e-04	 1.060210e-03
1.154944e+04	 2.308752e-05	 4.593693e-05	 1.166824e-04	 2.276626e-04	 4.535037e-04	 1.072746e-03
1.156245e+04	 2.246152e-05	 4.721877e-05	 1.128078e-04	 2.330940e-04	 4.557572e-04	 1.084434e-03
1.157547e+04	 2.248138e-05	 4.636891e-05	 1.154768e-04	 2.320093e-04	 4.602608e-04	 1.084434e-03
1.158850e+04	 2.263854e-05	 4.777426e-05	 1.219312e-04	 2.373992e-04	 4.649201e-04	 9.609012e-04
1.160155e+04	 2.225613e-05	 4.735253e-05	 1.219210e-04	 2.414138e-04	 4.743333e-04	 1.115666e-03
1.161462e+04	 2.262056e-05	 4.518987e-05	 1.220285e-04	 2.432652e-04	 4.785288e-04	 1.124430e-03
1.162770e+04	 2.344739e-05	 4.835891e-05	 1.213645e-04	 2.470679e-04	 4.746943e-04	 1.136336e-03
1.164079e+04	 2.268713e-05	 4.702158e-05	 1.270701e-04	 2.507871e-04	 4.869234e-04	 1.142670e-03
1.165390e+04	 2.282106e-05	 5.145316e-05	 1.291114e-04	 2.562291e-04	 4.901203e-04	 5.345054e-04
1.166702e+04	 2.357574e-05	 5.106102e-05	 1.315618e-04	 2.536890e-04	 4.905494e-04	 1.171749e-03
1.168016e+04	 2.365535e-05	 5.193037e-05	 1.333027e-04	 2.626047e-04	 4.948865e-04	 1.180880e-03
1.169331e+04	 2.369091e-05	 5.019858e-05	 1.361651e-04	 2.553859e-04	 5.034078e-04	 1.184815e-03
1.170648e+04	 2.459602e-05	 4.899004e-05	 1.373944e-04	 2.638402e-04	 5.134660e-04	 1.194116e-03
1.171966e+04	 2.560897e-05	 4.975232e-05	 1.348530e-04	 2.637656e-04	 5.152314e-04	 1.213913e-03
1.173286e+04	 2.507596e-05	 5.227082e-05	 1.332148e-04	 2.660476e-04	 5.147384e-04	 1.215997e-03
1.174607e+04	 2.531463e-05	 4.821023e-05	 1.353514e-04	 2.706778e-04	 5.318188e-04	 1.233049e-03
1.175929e+04	 2.637325e-05	 5.278642e-05	 1.358978e-04	 2.710450e-04	 5.347895e-04	 1.252043e-03
1.177254e+04	 2.556072e-05	 5.117109e-05	 1.327679e-04	 2.671887e-04	 5.322595e-04	 1.259084e-03
1.178579e+04	 2.493733e-05	 5.361054e-05	 1.363353e-04	 2.671606e-04	 5.437430e-04	 1.279359e-03
1.179906e+04	 2.537873e-05	 3.380266e-06	 1.337653e-04	 2.702299e-04	 5.558230e-04	 1.292961e-03
1.181235e+04	 7.498873e-06	 5.416819e-05	 1.350021e-04	 2.719372e-04	 5.602723e-04	 1.300921e-03
1.182565e+04	 2.584195e-05	 5.410143e-05	 1.352393e-04	 2.752050e-04	 5.625909e-04	 1.322269e-03
1.183897e+04	 2.813057e-05	 5.587902e-05	 1.362228e-04	 2.786178e-04	 5.675804e-04	 1.342421e-03
1.185230e+04	 2.771283e-05	 5.299096e-05	 1.412442e-04	 2.826356e-04	 5.683015e-04	 1.359288e-03
1.186564e+04	 2.650927e-05	 5.443619e-05	 1.383652e-04	 2.895024e-04	 5.762012e-04	 1.371525e-03
1.187900e+04	 2.741087e-05	 5.659003e-05	 1.402649e-04	 2.911714e-04	 5.766448e-04	 1.383138e-03
1.189238e+04	 2.711316e-05	 5.637631e-05	 1.437424e-04	 2.919850e-04	 5.831379e-04	 1.387669e-03
1.190577e+04	 2.701948e-05	 5.786711e-05	 1.461504e-04	 3.006900e-04	 5.834045e-04	 1.399576e-03
1.191918e+04	 2.838064e-05	 5.754476e-05	 1.494116e-04	 2.991146e-04	 5.875897e-04	 1.415765e-03
1.193260e+04	 2.878224e-05	 5.706776e-05	 1.502452e-04	 2.939412e-04	 5.893489e-04	 1.429324e-03
1.194604e+04	 2.831341e-05	 5.900983e-05	 1.542422e-04	 3.013993e-04	 5.946374e-04	 1.434272e-03
1.195949e+04	 2.737739e-05	 5.762085e-05	 1.529039e-04	 3.102565e-04	 5.918190e-04	 1.456728e-03
1.197296e+04	 2.571159e-05	 5.933398e-05	 1.491419e-04	 3.065718e-04	 5.897191e-04	 1.462436e-03
1.198644e+04	 2.859697e-05	 5.959891e-05	 1.536556e-04	 3.102854e-04	 6.025029e-04	 1.465460e-03
1.199993e+04	 2.989871e-05	 6.031545e-05	 1.555861e-04	 3.091632e-04	 6.024125e-04	 1.483329e-03
1.201345e+04	 2.913812e-05	 6.312997e-05	 1.582478e-04	 3.089026e-04	 6.033369e-04	 1.485090e-03
1.202697e+04	 2.981050e-05	 5.989248e-05	 1.572365e-04	 3.114182e-04	 6.058542e-04	 1.494945e-03
1.204052e+04	 2.996603e-05	 6.179454e-05	 1.586785e-04	 3.159974e-04	 6.038220e-04	 1.502166e-03
1.205408e+04	 2.968933e-05	 6.184925e-05	 1.578154e-04	 3.197345e-04	 6.085361e-04	 1.511666e-03
1.206765e+04	 3.079104e-05	 6.008059e-05	 1.614938e-04	 3.203050e-04	 6.111936e-04	 1.512831e-03
1.208124e+04	 3.044545e-05	 6.439795e-05	 1.552447e-04	 3.215253e-04	 6.164453e-04	 1.522377e-03
1.209484e+04	 3.102087e-05	 6.469883e-05	 1.529033e-04	 3.257928e-04	 6.264488e-04	 1.534296e-03
1.210846e+04	 3.152649e-05	 6.601160e-05	 1.608055e-04	 3.310714e-04	 6.316719e-04	 1.546395e-03
1.212210e+04	 3.054694e-05	 6.478016e-05	 1.578435e-04	 3.319070e-04	 6.332114e-04	 1.554887e-03
1.213575e+04	 3.131865e-05	 6.577482e-05	 1.616466e-04	 3.384644e-04	 6.394677e-04	 1.556156e-03
1.214941e+04	 3.120787e-05	 6.585324e-05	 1.627751e-04	 3.337190e-04	 6.430176e-04	 1.575139e-03
1.216309e+04	 3.082332e-05	 6.628204e-05	 1.629889e-04	 3.385081e-04	 6.440242e-04	 1.587735e-03
1.217679e+04	 3.091239e-05	 6.753358e-05	 1.678089e-04	 3.377746e-04	 6.462214e-04	 1.606510e-03
1.219050e+04	 3.122011e-05	 6.567248e-05	 1.687049e-04	 3.351021e-04	 6.482221e-04	 1.611615e-03
1.220423e+04	 3.155551e-05	 7.047151e-05	 1.689156e-04	 3.367907e-04	 6.544901e-04	 1.637444e-03
1.221797e+04	 3.341747e-05	 6.687972e-05	 1.724251e-04	 3.340924e-04	 6.547766e-04	 1.658220e-03
1.223173e+04	 3.176761e-05	 6.853550e-05	 1.739986e-04	 3.364876e-04	 6.644031e-04	 1.689294e-03
1.224550e+04	 3.261934e-05	 6.825408e-05	 1.718794e-04	 3.374464e-04	 6.620809e-04	 1.699042e-03
1.225929e+04	 3.215653e-05	 6.774443e-05	 1.713207e-04	 3.319396e-04	 6.646969e-04	 1.718538e-03
1.227309e+04	 3.193289e-05	 6.910852e-05	 1.729824e-04	 3.385572e-04	 6.683728e-04	 1.742812e-03
1.228691e+04	 3.240129e-05	 6.868557e-05	 1.753778e-04	 3.421491e-04	 6.718951e-04	 1.768046e-03
1.230075e+04	 3.271020e-05	 6.940400e-05	 1.756453e-04	 3.482580e-04	 6.773754e-04	 1.782536e-03
1.231460e+04	 3.312686e-05	 6.890836e-05	 1.734415e-04	 3.518838e-04	 6.815156e-04	 1.707894e-04
1.232847e+04	 3.344710e-05	 6.543096e-05	 1.771307e-04	 3.574090e-04	 6.942821e-04	 1.797823e-03
1.234235e+04	 3.502376e-05	 7.097225e-05	 1.739532e-04	 3.556209e-04	 6.949434e-04	 1.795850e-03
1.235625e+04	 3.481926e-05	 7.384682e-05	 1.696240e-04	 3.627380e-04	 7.026120e-04	 1.808920e-03
1.237016e+04	 3.466895e-05	 6.859077e-05	 1.725779e-04	 3.613492e-04	 7.084306e-04	 1.821211e-03
1.238409e+04	 3.446402e-05	 7.129734e-05	 1.760297e-04	 3.614308e-04	 7.099079e-04	 1.836170e-03
1.239804e+04	 3.537356e-05	 7.065511e-05	 1.797817e-04	 3.696484e-04	 7.188980e-04	 1.573648e-03
1.241200e+04	 3.449072e-05	 6.618380e-05	 1.795884e-04	 3.661111e-04	 7.281270e-04	 1.152145e-03
1.242597e+04	 3.596910e-05	 7.025702e-05	 1.837326e-04	 3.688923e-04	 7.345105e-04	 1.872238e-03
1.243996e+04	 3.568693e-05	 7.336128e-05	 1.868612e-04	 3.616628e-04	 7.415003e-04	 1.886795e-03
1.245397e+04	 3.609980e-05	 7.229283e-05	 1.863460e-04	 3.735129e-04	 7.411976e-04	 1.889674e-03
1.246800e+04	 3.611195e-05	 7.196375e-05	 1.865494e-04	 3.652936e-04	 7.480892e-04	 1.903804e-03
1.248204e+04	 3.568723e-05	 7.175864e-05	 1.909729e-04	 3.610671e-04	 7.610754e-04	 1.912993e-03
1.249609e+04	 3.537825e-05	 7.385211e-05	 1.904029e-04	 3.675803e-04	 7.570448e-04	 1.916800e-03
1.251016e+04	 3.556303e-05	 7.296451e-05	 1.958626e-04	 3.766669e-04	 7.756489e-04	 1.920077e-03
1.252425e+04	 3.517340e-05	 6.986180e-05	 1.932240e-04	 3.774965e-04	 7.812197e-04	 1.934982e-03
1.253835e+04	 3.617351e-05	 7.355625e-05	 1.868027e-04	 3.896607e-04	 7.828823e-04	 1.929050e-03
1.255247e+04	 3.544874e-05	 7.451626e-05	 1.890844e-04	 3.927929e-04	 7.889492e-04	 6.345842e-04
1.256661e+04	 3.523956e-05	 7.320052e-05	 1.873495e-04	 3.925895e-04	 7.945189e-04	 1.941358e-03
1.258076e+04	 3.769246e-05	 7.639046e-05	 1.899056e-04	 3.963255e-04	 7.907917e-04	 1.946617e-03
